"PointID"	"x"	"y"	"Conservative_1"	"Conservative_2"	"Conservative_3"	"Conservative_4"	"Pressure"	"Temperature"	"Pressure_Coefficient"	"Mach"
0	9.997500181200000e-01	-3.632896519016437e-05	1.533773418431573e+00	2.705026634449645e+02	3.636814858620497e+01	3.460851859064972e+05	1.287202102067595e+05	2.923586035473316e+02	6.035038024470304e-01	5.191509188957454e-01	
1	9.990000128750000e-01	-1.452537504052920e-04	1.502546123499770e+00	2.793956406105542e+02	3.974734321766910e+01	3.398138332413662e+05	1.253246240745997e+05	2.905620851772686e+02	5.287006114209867e-01	5.496349450952001e-01	
2	9.977599978450000e-01	-3.251111630156300e-04	1.483326390304285e+00	2.876274252454418e+02	4.125103657733882e+01	3.361233578212727e+05	1.230653100089059e+05	2.890209151859026e+02	4.789289681564335e-01	5.747794527977941e-01	
3	9.960200190539999e-01	-5.769983605901485e-04	1.467557331816715e+00	2.940067306141336e+02	4.218496009802715e+01	3.330926601155002e+05	1.212144293467194e+05	2.877329445201532e+02	4.381549237495910e-01	5.951735868692116e-01	
4	9.937800168990000e-01	-9.004365425509819e-04	1.454115991338440e+00	2.988942005453039e+02	4.294703847523684e+01	3.304909651369998e+05	1.196551318802301e+05	2.866570482381775e+02	4.038043222002672e-01	6.118230072532859e-01	
5	9.910500049590000e-01	-1.293363843462116e-03	1.442481808910055e+00	3.029798567887232e+02	4.344389937847227e+01	3.282384585963708e+05	1.183060804977077e+05	2.857110693545795e+02	3.740853445795821e-01	6.261961223913459e-01	
6	9.878399968150000e-01	-1.753609743384430e-03	1.431831109892703e+00	3.063791049763720e+02	4.377253593644435e+01	3.261619247655498e+05	1.170855116673613e+05	2.848667161585263e+02	3.471967781220545e-01	6.388301774367978e-01	
7	9.841300249100000e-01	-2.283176811071472e-03	1.422105750740797e+00	3.093970736292904e+02	4.400880253322996e+01	3.242655836478756e+05	1.159712037231544e+05	2.840852057313973e+02	3.226490898090129e-01	6.503703051412496e-01	
8	9.799500107769999e-01	-2.876826092032643e-03	1.413033401586033e+00	3.120701521335837e+02	4.416607885229896e+01	3.224918548896782e+05	1.149364342147570e+05	2.833581033083099e+02	2.998535964267423e-01	6.609818552491734e-01	
9	9.752799868580000e-01	-3.536324145770189e-03	1.404509859896514e+00	3.144932651470973e+02	4.425241326761247e+01	3.208232852053975e+05	1.139663974828662e+05	2.826717276298218e+02	2.784841361528094e-01	6.708939778321812e-01	
10	9.701499938960000e-01	-4.256268552403566e-03	1.396427851818909e+00	3.167052153676523e+02	4.427857278151787e+01	3.192386435506529e+05	1.130491174299154e+05	2.820194226879738e+02	2.582768811003185e-01	6.802240016469604e-01	
11	9.645400047300000e-01	-5.038225493362627e-03	1.388711665592336e+00	3.187431879766270e+02	4.425300325848878e+01	3.177235622181560e+05	1.121755229240742e+05	2.813949922059384e+02	2.390319984331316e-01	6.890767154091899e-01	
12	9.584699869160000e-01	-5.878077433056352e-03	1.381310270872609e+00	3.206363736868128e+02	4.417926549717394e+01	3.162685656512441e+05	1.113392929540364e+05	2.807938317191124e+02	2.206102391975158e-01	6.975298913477932e-01	
13	9.519400000570000e-01	-6.774428848839826e-03	1.374176572483936e+00	3.223996371974000e+02	4.406196562171473e+01	3.148642081674808e+05	1.105352935107367e+05	2.802133187930070e+02	2.028985035497674e-01	7.056304464430988e-01	
14	9.449599981310000e-01	-7.724467125531491e-03	1.367281765240066e+00	3.240532505841575e+02	4.390468505791416e+01	3.135053857063628e+05	1.097597119853032e+05	2.796502952537076e+02	1.858128014808970e-01	7.134306868592110e-01	
15	9.375399947170000e-01	-8.725349486403867e-03	1.360600680524618e+00	3.256073948483324e+02	4.371056464970974e+01	3.121871589433965e+05	1.090096959955963e+05	2.791031833693080e+02	1.692902963324407e-01	7.209593060377992e-01	
16	9.296900033950000e-01	-9.774221272349531e-03	1.354105690343504e+00	3.270744744419610e+02	4.348219248749010e+01	3.109042657233927e+05	1.082819551042945e+05	2.785696963721778e+02	1.532585012930135e-01	7.282535362357028e-01	
17	9.214000105860000e-01	-1.087086069705918e-02	1.347773717044769e+00	3.284636334119777e+02	4.322352396197878e+01	3.096522514756827e+05	1.075737998537265e+05	2.780480617211573e+02	1.376581688547827e-01	7.353424213202385e-01	
18	9.126999974250000e-01	-1.200973104171110e-02	1.341593735682452e+00	3.297820788954218e+02	4.293487482450523e+01	3.084290928463298e+05	1.068838405582175e+05	2.775373096476278e+02	1.224586848854785e-01	7.422432715541751e-01	
19	9.035800099370001e-01	-1.319055953446835e-02	1.335542994613363e+00	3.310321360339863e+02	4.261894464646864e+01	3.072299817274908e+05	1.062098416888487e+05	2.770366539428413e+02	1.076108017176149e-01	7.489703538703903e-01	
20	8.940600156780000e-01	-1.440916392228702e-02	1.329618910605564e+00	3.322261134378116e+02	4.227709014093667e+01	3.060551097084742e+05	1.055508122987403e+05	2.765443194289475e+02	9.309268925003247e-02	7.555506574210664e-01	
21	8.841500282290000e-01	-1.566269158090452e-02	1.323811761836871e+00	3.333649756353215e+02	4.191166904942165e+01	3.049023807978490e+05	1.049058394643925e+05	2.760601841044808e+02	7.888423620053327e-02	7.619885603868209e-01	
22	8.738499879840000e-01	-1.694956337677533e-02	1.318093222080372e+00	3.344484599589365e+02	4.152314016747901e+01	3.037656615564951e+05	1.042722872929814e+05	2.755834411230567e+02	6.492737507008420e-02	7.682972750708746e-01	
23	8.631799817090000e-01	-1.826569132102762e-02	1.312472190442781e+00	3.354915700577181e+02	4.111364836955684e+01	3.026478445497907e+05	1.036500183743444e+05	2.751120535633689e+02	5.121907877640033e-02	7.745058370028208e-01	
24	8.521599769590000e-01	-1.960709133914372e-02	1.306919518952819e+00	3.364887520811949e+02	4.068414186215371e+01	3.015422796829038e+05	1.030366587649566e+05	2.746459936247124e+02	3.770705044227898e-02	7.806163844579231e-01	
25	8.407700061800000e-01	-2.097463226217677e-02	1.301431250872574e+00	3.374482778166036e+02	4.023681241904107e+01	3.004486828150989e+05	1.024312684171694e+05	2.741837202660516e+02	2.437058125307119e-02	7.866506821902074e-01	
26	8.290500044819999e-01	-2.236196298315981e-02	1.295990532064152e+00	3.383689941915827e+02	3.976944472303202e+01	2.993633223586371e+05	1.018323608943864e+05	2.737249147265247e+02	1.117692569847784e-02	7.926142091641458e-01	
27	8.170099854470000e-01	-2.376642068849115e-02	1.290596923619240e+00	3.392576256635874e+02	3.928435797550105e+01	2.982865719685520e+05	1.012394272713115e+05	2.732683908027756e+02	-1.885127610246044e-03	7.985235308692438e-01	
28	8.046399950980000e-01	-2.518763605296113e-02	1.285240258364347e+00	3.401120523278142e+02	3.878137714934011e+01	2.972160755395798e+05	1.006516756491852e+05	2.728142391522535e+02	-1.483302383628466e-02	8.043784755331848e-01	
29	7.919700145720000e-01	-2.662062628442961e-02	1.279919252901085e+00	3.409337940046417e+02	3.825925503825430e+01	2.961516207161451e+05	1.000689220547130e+05	2.723623012594753e+02	-2.767081582617351e-02	8.101820564063870e-01	
30	7.790099978450000e-01	-2.806276676215449e-02	1.274630765969427e+00	3.417303001981467e+02	3.771852290529157e+01	2.950930761631493e+05	9.949032445930380e+04	2.719110115962923e+02	-4.041705308008625e-02	8.159551657192525e-01	
31	7.657799720760000e-01	-2.951033727360171e-02	1.269357261437038e+00	3.425010186667651e+02	3.716012147583562e+01	2.940366832829639e+05	9.891421347865411e+04	2.714595817168093e+02	-5.310851136164318e-02	8.217084937849128e-01	
32	7.522799968720000e-01	-3.096181144522562e-02	1.264056829130319e+00	3.432441292689364e+02	3.658187859476656e+01	2.929734365162686e+05	9.833661998769936e+04	2.710060727487502e+02	-6.583262865912014e-02	8.274671345865702e-01	
33	7.385200262070000e-01	-3.241453277608040e-02	1.258729446136148e+00	3.439681987408989e+02	3.598464254257551e+01	2.919039973840177e+05	9.775687691248335e+04	2.705485880757355e+02	-7.860410030305263e-02	8.332553027087427e-01	
34	7.245299816130000e-01	-3.386376679305321e-02	1.253377767899248e+00	3.446733759001784e+02	3.536492739488787e+01	2.908289087440057e+05	9.717526166766240e+04	2.700872463179979e+02	-9.141681497694823e-02	8.390714817067120e-01	
35	7.103199958800001e-01	-3.530689307158652e-02	1.247992727689175e+00	3.453533613011786e+02	3.472474960730846e+01	2.897457872371851e+05	9.659135104414907e+04	2.696227483941930e+02	-1.042800957811439e-01	8.449068978194338e-01	
36	6.958900094030001e-01	-3.674225211597043e-02	1.242585112550316e+00	3.460213512494672e+02	3.405926604254104e+01	2.886579069350855e+05	9.600521049328553e+04	2.691528627803092e+02	-1.171925008528619e-01	8.507895544884950e-01	
37	6.812700033190000e-01	-3.816515293304169e-02	1.237114772876043e+00	3.466616401956593e+02	3.336830780296504e+01	2.875556013360487e+05	9.541407815401096e+04	2.686784356452546e+02	-1.302148727130926e-01	8.567087495422676e-01	
38	6.664699912070000e-01	-3.957289370556494e-02	1.231590269583055e+00	3.472868864510480e+02	3.265008632748500e+01	2.864416811578127e+05	9.481779442664183e+04	2.681970182663299e+02	-1.433507272690019e-01	8.626948394391925e-01	
39	6.514999866490000e-01	-4.096270419333766e-02	1.225986433212700e+00	3.478948106227770e+02	3.190062983951062e+01	2.853106883775895e+05	9.421403064749736e+04	2.677073315353081e+02	-1.566513639037802e-01	8.687633496235805e-01	
40	6.363800168040000e-01	-4.233084266562091e-02	1.220299329016758e+00	3.484835445249082e+02	3.112166306056454e+01	2.841616883663209e+05	9.360249292855898e+04	2.672091886480994e+02	-1.701232568344662e-01	8.749160106864617e-01	
41	6.211299896240000e-01	-4.367359094194759e-02	1.214512805180963e+00	3.490569506083265e+02	3.030533335290680e+01	2.829915953478714e+05	9.298126165667115e+04	2.667004091613137e+02	-1.838086942504857e-01	8.811790917810850e-01	
42	6.057599782940000e-01	-4.498807223669178e-02	1.208619639322129e+00	3.496101101136891e+02	2.945497621760283e+01	2.817985845551199e+05	9.234994441234005e+04	2.661811742959464e+02	-1.977163209716778e-01	8.875498125501003e-01	
43	5.902799963950000e-01	-4.627132533375768e-02	1.202609288883667e+00	3.501474225168296e+02	2.856140867001529e+01	2.805808122943690e+05	9.170712646780719e+04	2.656494229621125e+02	-2.118773027958304e-01	8.940527100718793e-01	
44	5.747100114820000e-01	-4.751950934859488e-02	1.196481631429196e+00	3.506631110067467e+02	2.762695492204736e+01	2.793378387828737e+05	9.105318556772455e+04	2.651059372460199e+02	-2.262833181830798e-01	9.006771676259153e-01	
45	5.590599775310000e-01	-4.872955796694115e-02	1.190229277468330e+00	3.511607595648397e+02	2.664375173335191e+01	2.780684436931693e+05	9.038706193262112e+04	2.645489158584107e+02	-2.409577135847098e-01	9.074443368489087e-01	
46	5.433599948880000e-01	-4.989683951066199e-02	1.183858571249725e+00	3.516336146418927e+02	2.561518306921686e+01	2.767734765647356e+05	8.970986592446399e+04	2.639798210226696e+02	-2.558760282404571e-01	9.143355654130325e-01	
47	5.276100039480000e-01	-5.101897737545535e-02	1.177397291080406e+00	3.520803455828607e+02	2.453305204111146e+01	2.754586165042368e+05	8.902449858442906e+04	2.634006542180590e+02	-2.709743535558082e-01	9.213258404431401e-01	
48	5.118399858470000e-01	-5.209138375948307e-02	1.170894413529957e+00	3.524909000174437e+02	2.339156532179356e+01	2.741332593476800e+05	8.833677878494239e+04	2.628174335047224e+02	-2.861245024641713e-01	9.283428748324556e-01	
49	4.960500001910000e-01	-5.311153541819326e-02	1.164357958789571e+00	3.528778045670996e+02	2.217709648204622e+01	2.728001233110306e+05	8.764648655606367e+04	2.622275640667855e+02	-3.013313208015299e-01	9.354181270041030e-01	
50	4.802699983120000e-01	-5.407492053959814e-02	1.157614227088413e+00	3.532513528140875e+02	2.089523797454462e+01	2.714240482215285e+05	8.693492850739107e+04	2.616138854834800e+02	-3.170066153072003e-01	9.427557281376481e-01	
51	4.645099937920000e-01	-5.497835513414191e-02	1.150284424499327e+00	3.536268990816810e+02	1.957714494205820e+01	2.699280952713093e+05	8.616180633901943e+04	2.609395452678921e+02	-3.340381388781803e-01	9.507925321824934e-01	
52	4.487800002100000e-01	-5.581859897363720e-02	1.142314196600440e+00	3.539698594884412e+02	1.825839226098658e+01	2.682985390486037e+05	8.532406080583666e+04	2.602053894952499e+02	-3.524932852684813e-01	9.595126662674908e-01	
53	4.331099987030000e-01	-5.659141825851464e-02	1.134968092283468e+00	3.542063225638239e+02	1.688704917618172e+01	2.667908373466135e+05	8.455759898315738e+04	2.595370331233330e+02	-3.693780845062435e-01	9.674246615710367e-01	
54	4.174999892710000e-01	-5.729416860686566e-02	1.130584632882473e+00	3.542738417373393e+02	1.534220629027204e+01	2.658826830772977e+05	8.410876978366743e+04	2.591603441361142e+02	-3.792655840544165e-01	9.718735200509293e-01	
55	4.019699990750000e-01	-5.792324246601335e-02	1.130218882910126e+00	3.542090224687588e+02	1.347990868396870e+01	2.657943725352476e+05	8.408387176496212e+04	2.591674690733856e+02	-3.798140758837781e-01	9.717895744272342e-01	
56	3.865399956700000e-01	-5.847520956655861e-02	1.130291425770644e+00	3.541878448978564e+02	1.132808572269878e+01	2.658007524496879e+05	8.409995105305714e+04	2.592003927280585e+02	-3.794598566084834e-01	9.714010303417436e-01	
57	3.712300062180000e-01	-5.894684318665333e-02	1.121510599129754e+00	3.544764254250269e+02	9.247121693723461e+00	2.640040340995883e+05	8.317845588469834e+04	2.583674606920874e+02	-3.997599687026729e-01	9.812144686804304e-01	
58	3.560400009160000e-01	-5.933561549045978e-02	1.094968803796579e+00	3.549638436866654e+02	7.756832691765148e+00	2.585651790618781e+05	8.040084965657566e+04	2.557933428202070e+02	-4.609493484417259e-01	1.011329272689503e+00	
59	3.409900069240000e-01	-5.963847719943702e-02	1.055411541347526e+00	3.547735199658394e+02	6.689158777226349e+00	2.504143161431510e+05	7.630602995378252e+04	2.518647356993036e+02	-5.511563314259604e-01	1.056754272912956e+00	
60	3.261100053790000e-01	-5.985254444802346e-02	1.023898271316244e+00	3.535633638485116e+02	4.765343773358227e+00	2.438479864966082e+05	7.311689323145278e+04	2.487661387664986e+02	-6.214115374975154e-01	1.092208148961683e+00	
61	3.113999962810000e-01	-5.997565198183213e-02	1.011086873821233e+00	3.526744453357489e+02	2.270154175205849e+00	2.411450306423878e+05	7.185391122204257e+04	2.475667332787879e+02	-6.492344466611465e-01	1.105858419171057e+00	
62	2.968699932100000e-01	-6.000550062925582e-02	1.010991162150279e+00	3.524931451086351e+02	-2.744843901269780e-01	2.411067623792265e+05	7.186257065536559e+04	2.476200088888829e+02	-6.490436833525960e-01	1.105253084745183e+00	
63	2.825500071050000e-01	-5.994005483718394e-02	1.015220932696156e+00	3.525898115808882e+02	-2.771395466384751e+00	2.419795715919068e+05	7.229917844419873e+04	2.480865066572118e+02	-6.394254158251663e-01	1.099948098086754e+00	
64	2.684499919410000e-01	-5.977765596976551e-02	1.019840918559835e+00	3.527983936333640e+02	-5.296781714012153e+00	2.429453515249281e+05	7.276359512916964e+04	2.485490233970109e+02	-6.291945311856816e-01	1.094682642182789e+00	
65	2.545700073240000e-01	-5.951657836311273e-02	1.024171622967512e+00	3.529838748671888e+02	-7.915736523372161e+00	2.438522827311251e+05	7.319728317625244e+04	2.489731813194266e+02	-6.196405842177652e-01	1.089848603166243e+00	
66	2.409400045870000e-01	-5.915585896897953e-02	1.028760494465284e+00	3.531493021434511e+02	-1.068578693008918e+01	2.448127809969122e+05	7.365734233599558e+04	2.494204805406687e+02	-6.095056938424011e-01	1.084745600982526e+00	
67	2.275699973110000e-01	-5.869456802648413e-02	1.033912943381780e+00	3.532858129711282e+02	-1.360322527636283e+01	2.458888082410097e+05	7.417632829073019e+04	2.499261534606853e+02	-5.980726734444900e-01	1.078969671143679e+00	
68	2.144699990750000e-01	-5.813197420944613e-02	1.039598507817788e+00	3.534002524098486e+02	-1.667001971661873e+01	2.470754113096687e+05	7.474978598938120e+04	2.504809209756860e+02	-5.854396657374342e-01	1.072624375980188e+00	
69	2.016600072380000e-01	-5.746811193675738e-02	1.045659192175340e+00	3.534676662465804e+02	-1.988793051885092e+01	2.483384340747981e+05	7.536295091322399e+04	2.510718837696947e+02	-5.719319262357689e-01	1.065854689309436e+00	
70	1.891400069000000e-01	-5.670228146432130e-02	1.052130151284328e+00	3.534891361677725e+02	-2.327047377047958e+01	2.496858559324023e+05	7.601872257441253e+04	2.516989745518882e+02	-5.574855800286266e-01	1.058658899952781e+00	
71	1.769299954180000e-01	-5.583513598033686e-02	1.059255286897506e+00	3.534502717235112e+02	-2.684052261360668e+01	2.511671651446727e+05	7.674312168957626e+04	2.523882695962704e+02	-5.415274027709573e-01	1.050734208353495e+00	
72	1.650400012730000e-01	-5.486709202536137e-02	1.067315550927330e+00	3.533444430814291e+02	-3.061592124114009e+01	2.528404954700160e+05	7.756498160061994e+04	2.531647304070529e+02	-5.234222092845700e-01	1.041787486699451e+00	
73	1.534900069240000e-01	-5.379977779145956e-02	1.076309638794553e+00	3.531437300883237e+02	-3.460328572407909e+01	2.547042630411430e+05	7.848548596033095e+04	2.540285138011751e+02	-5.031439242463486e-01	1.031808615435043e+00	
74	1.422899961470000e-01	-5.263443049277360e-02	1.086035115262935e+00	3.528325383003396e+02	-3.881061394806095e+01	2.567168307324343e+05	7.948360339451605e+04	2.549552886968581e+02	-4.811558590965235e-01	1.021069930460427e+00	
75	1.314399987460000e-01	-5.137133628795417e-02	1.096270394136736e+00	3.523617400660503e+02	-4.325571988294094e+01	2.588295807877350e+05	8.053935640057127e+04	2.559297747101555e+02	-4.578981089719416e-01	1.009740502745063e+00	
76	1.209499984980000e-01	-5.001187382363489e-02	1.107099861911338e+00	3.517352401042319e+02	-4.797401989454555e+01	2.610621579934690e+05	8.165922297800219e+04	2.569501004599186e+02	-4.332279665414906e-01	9.978339975055792e-01	
77	1.108499988910000e-01	-4.856066993422563e-02	1.118762791019967e+00	3.509241025874491e+02	-5.298631186001380e+01	2.634633739618525e+05	8.286846288948348e+04	2.580367806515010e+02	-4.065889709235778e-01	9.851004419755761e-01	
78	1.011300012470000e-01	-4.701715290498424e-02	1.131303563981702e+00	3.498424807384151e+02	-5.831326330625009e+01	2.660372443511501e+05	8.417679967173211e+04	2.592051346013583e+02	-3.777669171043471e-01	9.713452030486582e-01	
79	9.181000292300000e-02	-4.538527151431038e-02	1.144743135286800e+00	3.484390353182376e+02	-6.399589540763503e+01	2.687869431320291e+05	8.558754622712212e+04	2.604551042381258e+02	-3.466888233776981e-01	9.565498166271605e-01	
80	8.290000259900000e-02	-4.366791468532204e-02	1.159200386764531e+00	3.466879772958069e+02	-7.007216268913334e+01	2.717387697628207e+05	8.711120496427662e+04	2.617856574991112e+02	-3.131233265421420e-01	9.407039933809423e-01	
81	7.440000027400000e-02	-4.186607976498817e-02	1.174718620024276e+00	3.444903166694669e+02	-7.657783113442319e+01	2.748977828008672e+05	8.875612197380180e+04	2.632054095950066e+02	-2.768865660841661e-01	9.236775562842579e-01	
82	6.633000075800000e-02	-3.998513962421356e-02	1.191458792398826e+00	3.417617920652137e+02	-8.356531534185093e+01	2.782962257746002e+05	9.053988088859640e+04	2.647227328664545e+02	-2.375911827086550e-01	9.053349048370209e-01	
83	5.869000032500000e-02	-3.802635805630503e-02	1.209536190840698e+00	3.383674457338662e+02	-9.108053235509198e+01	2.819540148254052e+05	9.247825450729924e+04	2.663490191380671e+02	-1.948897089611919e-01	8.854928079987100e-01	
84	5.149000138000000e-02	-3.599337852580232e-02	1.229158711688466e+00	3.341428216987258e+02	-9.916642610560672e+01	2.859099967332137e+05	9.459675395847598e+04	2.681011122981005e+02	-1.482201464859368e-01	8.638850073251783e-01	
85	4.473999887700000e-02	-3.389028465845557e-02	1.250636506006005e+00	3.288542382164208e+02	-1.078693410606755e+02	2.902219671162392e+05	9.693359600430676e+04	2.700060951377061e+02	-9.674059769864558e-02	8.400924153546189e-01	
86	3.844000026600000e-02	-3.171811260404538e-02	1.274212849740898e+00	3.222074735786895e+02	-1.172264153997730e+02	2.949329600481614e+05	9.952105672807501e+04	2.720842130081749e+02	-3.974003542184336e-02	8.137419698424071e-01	
